# T(s)	Sa(g)
    0.000000	  4.000000E-01
    0.010020	  4.536788E-01
    0.020040	  5.073576E-01
    0.030060	  5.610364E-01
    0.040080	  6.147151E-01
    0.050100	  6.683939E-01
    0.060120	  7.220727E-01
    0.070140	  7.757515E-01
    0.080160	  8.294303E-01
    0.090180	  8.831091E-01
    0.100200	  9.367879E-01
    0.110220	  9.904666E-01
    0.112000	  1.000000E+00
    0.120240	  1.000000E+00
    0.130261	  1.000000E+00
    0.140281	  1.000000E+00
    0.150301	  1.000000E+00
    0.160321	  1.000000E+00
    0.170341	  1.000000E+00
    0.180361	  1.000000E+00
    0.190381	  1.000000E+00
    0.200401	  1.000000E+00
    0.210421	  1.000000E+00
    0.220441	  1.000000E+00
    0.230461	  1.000000E+00
    0.240481	  1.000000E+00
    0.250501	  1.000000E+00
    0.260521	  1.000000E+00
    0.270541	  1.000000E+00
    0.280561	  1.000000E+00
    0.290581	  1.000000E+00
    0.300601	  1.000000E+00
    0.310621	  1.000000E+00
    0.320641	  1.000000E+00
    0.330661	  1.000000E+00
    0.340681	  1.000000E+00
    0.350701	  1.000000E+00
    0.360721	  1.000000E+00
    0.370741	  1.000000E+00
    0.380762	  1.000000E+00
    0.390782	  1.000000E+00
    0.400802	  1.000000E+00
    0.410822	  1.000000E+00
    0.420842	  1.000000E+00
    0.430862	  1.000000E+00
    0.440882	  1.000000E+00
    0.450902	  1.000000E+00
    0.460922	  1.000000E+00
    0.470942	  1.000000E+00
    0.480962	  1.000000E+00
    0.490982	  1.000000E+00
    0.501002	  1.000000E+00
    0.511022	  1.000000E+00
    0.521042	  1.000000E+00
    0.531062	  1.000000E+00
    0.541082	  1.000000E+00
    0.551102	  1.000000E+00
    0.560000	  1.000000E+00
    0.561122	  9.980000E-01
    0.571142	  9.804912E-01
    0.581162	  9.635862E-01
    0.591182	  9.472542E-01
    0.601202	  9.314667E-01
    0.611222	  9.161967E-01
    0.621242	  9.014194E-01
    0.631263	  8.871111E-01
    0.641283	  8.732500E-01
    0.651303	  8.598154E-01
    0.661323	  8.467879E-01
    0.671343	  8.341493E-01
    0.681363	  8.218824E-01
    0.691383	  8.099710E-01
    0.701403	  7.984000E-01
    0.711423	  7.871549E-01
    0.721443	  7.762222E-01
    0.731463	  7.655890E-01
    0.741483	  7.552432E-01
    0.751503	  7.451733E-01
    0.761523	  7.353684E-01
    0.771543	  7.258182E-01
    0.781563	  7.165128E-01
    0.791583	  7.074430E-01
    0.801603	  6.986000E-01
    0.811623	  6.899753E-01
    0.821643	  6.815610E-01
    0.831663	  6.733494E-01
    0.841683	  6.653333E-01
    0.851703	  6.575059E-01
    0.861723	  6.498605E-01
    0.871743	  6.423908E-01
    0.881764	  6.350909E-01
    0.891784	  6.279551E-01
    0.901804	  6.209778E-01
    0.911824	  6.141538E-01
    0.921844	  6.074783E-01
    0.931864	  6.009462E-01
    0.941884	  5.945532E-01
    0.951904	  5.882947E-01
    0.961924	  5.821667E-01
    0.971944	  5.761649E-01
    0.981964	  5.702857E-01
    0.991984	  5.645253E-01
    1.002004	  5.588800E-01
    1.012024	  5.533465E-01
    1.022044	  5.479216E-01
    1.032064	  5.426019E-01
    1.042084	  5.373846E-01
    1.052104	  5.322667E-01
    1.062124	  5.272453E-01
    1.072144	  5.223178E-01
    1.082164	  5.174815E-01
    1.092184	  5.127339E-01
    1.102204	  5.080727E-01
    1.112224	  5.034955E-01
    1.122244	  4.990000E-01
    1.132265	  4.945841E-01
    1.142285	  4.902456E-01
    1.152305	  4.859826E-01
    1.162325	  4.817931E-01
    1.172345	  4.776752E-01
    1.182365	  4.736271E-01
    1.192385	  4.696471E-01
    1.202405	  4.657333E-01
    1.212425	  4.618843E-01
    1.222445	  4.580984E-01
    1.232465	  4.543740E-01
    1.242485	  4.507097E-01
    1.252505	  4.471040E-01
    1.262525	  4.435556E-01
    1.272545	  4.400630E-01
    1.282565	  4.366250E-01
    1.292585	  4.332403E-01
    1.302605	  4.299077E-01
    1.312625	  4.266260E-01
    1.322645	  4.233939E-01
    1.332665	  4.202105E-01
    1.342685	  4.170746E-01
    1.352705	  4.139852E-01
    1.362725	  4.109412E-01
    1.372745	  4.079416E-01
    1.382766	  4.049855E-01
    1.392786	  4.020719E-01
    1.402806	  3.992000E-01
    1.412826	  3.963688E-01
    1.422846	  3.935775E-01
    1.432866	  3.908252E-01
    1.442886	  3.881111E-01
    1.452906	  3.854345E-01
    1.462926	  3.827945E-01
    1.472946	  3.801905E-01
    1.482966	  3.776216E-01
    1.492986	  3.750872E-01
    1.503006	  3.725867E-01
    1.513026	  3.701192E-01
    1.523046	  3.676842E-01
    1.533066	  3.652810E-01
    1.543086	  3.629091E-01
    1.553106	  3.605677E-01
    1.563126	  3.582564E-01
    1.573146	  3.559745E-01
    1.583166	  3.537215E-01
    1.593186	  3.514969E-01
    1.603206	  3.493000E-01
    1.613226	  3.471304E-01
    1.623246	  3.449877E-01
    1.633267	  3.428712E-01
    1.643287	  3.407805E-01
    1.653307	  3.387152E-01
    1.663327	  3.366747E-01
    1.673347	  3.346587E-01
    1.683367	  3.326667E-01
    1.693387	  3.306982E-01
    1.703407	  3.287529E-01
    1.713427	  3.268304E-01
    1.723447	  3.249302E-01
    1.733467	  3.230520E-01
    1.743487	  3.211954E-01
    1.753507	  3.193600E-01
    1.763527	  3.175455E-01
    1.773547	  3.157514E-01
    1.783567	  3.139775E-01
    1.793587	  3.122235E-01
    1.803607	  3.104889E-01
    1.813627	  3.087735E-01
    1.823647	  3.070769E-01
    1.833667	  3.053989E-01
    1.843687	  3.037391E-01
    1.853707	  3.020973E-01
    1.863727	  3.004731E-01
    1.873747	  2.988663E-01
    1.883768	  2.972766E-01
    1.893788	  2.957037E-01
    1.903808	  2.941474E-01
    1.913828	  2.926073E-01
    1.923848	  2.910833E-01
    1.933868	  2.895751E-01
    1.943888	  2.880825E-01
    1.953908	  2.866051E-01
    1.963928	  2.851429E-01
    1.973948	  2.836954E-01
    1.983968	  2.822626E-01
    1.993988	  2.808442E-01
    2.004008	  2.794400E-01
    2.014028	  2.780498E-01
    2.024048	  2.766733E-01
    2.034068	  2.753103E-01
    2.044088	  2.739608E-01
    2.054108	  2.726244E-01
    2.064128	  2.713010E-01
    2.074148	  2.699903E-01
    2.084168	  2.686923E-01
    2.094188	  2.674067E-01
    2.104208	  2.661333E-01
    2.114228	  2.648720E-01
    2.124248	  2.636226E-01
    2.134269	  2.623850E-01
    2.144289	  2.611589E-01
    2.154309	  2.599442E-01
    2.164329	  2.587407E-01
    2.174349	  2.575484E-01
    2.184369	  2.563670E-01
    2.194389	  2.551963E-01
    2.204409	  2.540364E-01
    2.214429	  2.528869E-01
    2.224449	  2.517477E-01
    2.234469	  2.506188E-01
    2.244489	  2.495000E-01
    2.254509	  2.483911E-01
    2.264529	  2.472920E-01
    2.274549	  2.462026E-01
    2.284569	  2.451228E-01
    2.294589	  2.440524E-01
    2.304609	  2.429913E-01
    2.314629	  2.419394E-01
    2.324649	  2.408966E-01
    2.334669	  2.398627E-01
    2.344689	  2.388376E-01
    2.354709	  2.378213E-01
    2.364729	  2.368136E-01
    2.374749	  2.358143E-01
    2.384770	  2.348235E-01
    2.394790	  2.338410E-01
    2.404810	  2.328667E-01
    2.414830	  2.319004E-01
    2.424850	  2.309421E-01
    2.434870	  2.299918E-01
    2.444890	  2.290492E-01
    2.454910	  2.281143E-01
    2.464930	  2.271870E-01
    2.474950	  2.262672E-01
    2.484970	  2.253548E-01
    2.494990	  2.244498E-01
    2.505010	  2.235520E-01
    2.515030	  2.226614E-01
    2.525050	  2.217778E-01
    2.535070	  2.209012E-01
    2.545090	  2.200315E-01
    2.555110	  2.191686E-01
    2.565130	  2.183125E-01
    2.575150	  2.174630E-01
    2.585170	  2.166202E-01
    2.595190	  2.157838E-01
    2.605210	  2.149538E-01
    2.615230	  2.141303E-01
    2.625251	  2.133130E-01
    2.635271	  2.125019E-01
    2.645291	  2.116970E-01
    2.655311	  2.108981E-01
    2.665331	  2.101053E-01
    2.675351	  2.093184E-01
    2.685371	  2.085373E-01
    2.695391	  2.077621E-01
    2.705411	  2.069926E-01
    2.715431	  2.062288E-01
    2.725451	  2.054706E-01
    2.735471	  2.047179E-01
    2.745491	  2.039708E-01
    2.755511	  2.032291E-01
    2.765531	  2.024928E-01
    2.775551	  2.017617E-01
    2.785571	  2.010360E-01
    2.795591	  2.003154E-01
    2.805611	  1.996000E-01
    2.815631	  1.988897E-01
    2.825651	  1.981844E-01
    2.835671	  1.974841E-01
    2.845691	  1.967887E-01
    2.855711	  1.960982E-01
    2.865731	  1.954126E-01
    2.875752	  1.947317E-01
    2.885772	  1.940556E-01
    2.895792	  1.933841E-01
    2.905812	  1.927172E-01
    2.915832	  1.920550E-01
    2.925852	  1.913973E-01
    2.935872	  1.907440E-01
    2.945892	  1.900952E-01
    2.955912	  1.894508E-01
    2.965932	  1.888108E-01
    2.975952	  1.881751E-01
    2.985972	  1.875436E-01
    2.995992	  1.869164E-01
    3.006012	  1.862933E-01
    3.016032	  1.856744E-01
    3.026052	  1.850596E-01
    3.036072	  1.844488E-01
    3.046092	  1.838421E-01
    3.056112	  1.832393E-01
    3.066132	  1.826405E-01
    3.076152	  1.820456E-01
    3.086172	  1.814545E-01
    3.096192	  1.808673E-01
    3.106212	  1.802839E-01
    3.116232	  1.797042E-01
    3.126253	  1.791282E-01
    3.136273	  1.785559E-01
    3.146293	  1.779873E-01
    3.156313	  1.774222E-01
    3.166333	  1.768608E-01
    3.176353	  1.763028E-01
    3.186373	  1.757484E-01
    3.196393	  1.751975E-01
    3.206413	  1.746500E-01
    3.216433	  1.741059E-01
    3.226453	  1.735652E-01
    3.236473	  1.730279E-01
    3.246493	  1.724938E-01
    3.256513	  1.719631E-01
    3.266533	  1.714356E-01
    3.276553	  1.709113E-01
    3.286573	  1.703902E-01
    3.296593	  1.698723E-01
    3.306613	  1.693576E-01
    3.316633	  1.688459E-01
    3.326653	  1.683373E-01
    3.336673	  1.678318E-01
    3.346693	  1.673293E-01
    3.356713	  1.668299E-01
    3.366733	  1.663333E-01
    3.376754	  1.658398E-01
    3.386774	  1.653491E-01
    3.396794	  1.648614E-01
    3.406814	  1.643765E-01
    3.416834	  1.638944E-01
    3.426854	  1.634152E-01
    3.436874	  1.629388E-01
    3.446894	  1.624651E-01
    3.456914	  1.619942E-01
    3.466934	  1.615260E-01
    3.476954	  1.610605E-01
    3.486974	  1.605977E-01
    3.496994	  1.601375E-01
    3.507014	  1.596800E-01
    3.517034	  1.592251E-01
    3.527054	  1.587727E-01
    3.537074	  1.583229E-01
    3.547094	  1.578757E-01
    3.557114	  1.574310E-01
    3.567134	  1.569888E-01
    3.577154	  1.565490E-01
    3.587174	  1.561117E-01
    3.597194	  1.556769E-01
    3.607214	  1.552444E-01
    3.617234	  1.548144E-01
    3.627255	  1.543867E-01
    3.637275	  1.539614E-01
    3.647295	  1.535385E-01
    3.657315	  1.531178E-01
    3.667335	  1.526995E-01
    3.677355	  1.522834E-01
    3.687375	  1.518696E-01
    3.697395	  1.514580E-01
    3.707415	  1.510486E-01
    3.717435	  1.506415E-01
    3.727455	  1.502366E-01
    3.737475	  1.498338E-01
    3.747495	  1.494332E-01
    3.757515	  1.490347E-01
    3.767535	  1.486383E-01
    3.777555	  1.482440E-01
    3.787575	  1.478519E-01
    3.797595	  1.474617E-01
    3.807615	  1.470737E-01
    3.817635	  1.466877E-01
    3.827655	  1.463037E-01
    3.837675	  1.459217E-01
    3.847695	  1.455417E-01
    3.857715	  1.451636E-01
    3.867735	  1.447876E-01
    3.877756	  1.444134E-01
    3.887776	  1.440412E-01
    3.897796	  1.436710E-01
    3.907816	  1.433026E-01
    3.917836	  1.429361E-01
    3.927856	  1.425714E-01
    3.937876	  1.422087E-01
    3.947896	  1.418477E-01
    3.957916	  1.414886E-01
    3.967936	  1.411313E-01
    3.977956	  1.407758E-01
    3.987976	  1.404221E-01
    3.997996	  1.400702E-01
    4.008016	  1.397200E-01
    4.018036	  1.393716E-01
    4.028056	  1.390249E-01
    4.038076	  1.386799E-01
    4.048096	  1.383366E-01
    4.058116	  1.379951E-01
    4.068136	  1.376552E-01
    4.078156	  1.373170E-01
    4.088176	  1.369804E-01
    4.098196	  1.366455E-01
    4.108216	  1.363122E-01
    4.118236	  1.359805E-01
    4.128257	  1.356505E-01
    4.138277	  1.353220E-01
    4.148297	  1.349952E-01
    4.158317	  1.346699E-01
    4.168337	  1.343462E-01
    4.178357	  1.340240E-01
    4.188377	  1.337033E-01
    4.198397	  1.333842E-01
    4.208417	  1.330667E-01
    4.218437	  1.327506E-01
    4.228457	  1.324360E-01
    4.238477	  1.321229E-01
    4.248497	  1.318113E-01
    4.258517	  1.315012E-01
    4.268537	  1.311925E-01
    4.278557	  1.308852E-01
    4.288577	  1.305794E-01
    4.298597	  1.302751E-01
    4.308617	  1.299721E-01
    4.318637	  1.296705E-01
    4.328657	  1.293704E-01
    4.338677	  1.290716E-01
    4.348697	  1.287742E-01
    4.358717	  1.284782E-01
    4.368737	  1.281835E-01
    4.378758	  1.278902E-01
    4.388778	  1.275982E-01
    4.398798	  1.273075E-01
    4.408818	  1.270182E-01
    4.418838	  1.267302E-01
    4.428858	  1.264434E-01
    4.438878	  1.261580E-01
    4.448898	  1.258739E-01
    4.458918	  1.255910E-01
    4.468938	  1.253094E-01
    4.478958	  1.250291E-01
    4.488978	  1.247500E-01
    4.498998	  1.244722E-01
    4.509018	  1.241956E-01
    4.519038	  1.239202E-01
    4.529058	  1.236460E-01
    4.539078	  1.233731E-01
    4.549098	  1.231013E-01
    4.559118	  1.228308E-01
    4.569138	  1.225614E-01
    4.579158	  1.222932E-01
    4.589178	  1.220262E-01
    4.599198	  1.217603E-01
    4.609218	  1.214957E-01
    4.619238	  1.212321E-01
    4.629259	  1.209697E-01
    4.639279	  1.207084E-01
    4.649299	  1.204483E-01
    4.659319	  1.201892E-01
    4.669339	  1.199313E-01
    4.679359	  1.196745E-01
    4.689379	  1.194188E-01
    4.699399	  1.191642E-01
    4.709419	  1.189106E-01
    4.719439	  1.186582E-01
    4.729459	  1.184068E-01
    4.739479	  1.181564E-01
    4.749499	  1.179072E-01
    4.759519	  1.176589E-01
    4.769539	  1.174118E-01
    4.779559	  1.171656E-01
    4.789579	  1.169205E-01
    4.799599	  1.166764E-01
    4.809619	  1.164333E-01
    4.819639	  1.161913E-01
    4.829659	  1.159502E-01
    4.839679	  1.157101E-01
    4.849699	  1.154711E-01
    4.859719	  1.152330E-01
    4.869739	  1.149959E-01
    4.879760	  1.147598E-01
    4.889780	  1.145246E-01
    4.899800	  1.142904E-01
    4.909820	  1.140571E-01
    4.919840	  1.138248E-01
    4.929860	  1.135935E-01
    4.939880	  1.133631E-01
    4.949900	  1.131336E-01
    4.959920	  1.129051E-01
    4.969940	  1.126774E-01
    4.979960	  1.124507E-01
    4.989980	  1.122249E-01
    5.000000	  1.120000E-01
